# r (AU) sigma(g/cm2)
2.000000e-01 3.116353e-01
5.103103e-01 1.937377e-01
8.206206e-01 1.188015e-01
1.130931e+00 7.176584e-02
1.441241e+00 4.270791e-02
1.751552e+00 2.447886e-02
2.061862e+00 1.479643e-02
2.372172e+00 8.875828e-03
2.682482e+00 5.059033e-03
2.992793e+00 2.756825e-03
3.303103e+00 1.623970e-03
3.613413e+00 9.946574e-04
3.923724e+00 6.748588e-04
4.234034e+00 4.637800e-04
4.544344e+00 3.482727e-04
4.854655e+00 3.270395e-04
5.164965e+00 3.159761e-04
5.475275e+00 3.084756e-04
5.785586e+00 3.025193e-04
6.095896e+00 3.040398e-04
6.406206e+00 3.154867e-04
6.716517e+00 3.208543e-04
7.026827e+00 3.020230e-04
7.337137e+00 2.887360e-04
7.647447e+00 3.383214e-04
7.957758e+00 3.933521e-04
8.268068e+00 4.111487e-04
8.578378e+00 5.531607e-04
8.888689e+00 7.553860e-04
9.198999e+00 7.309146e-04
9.509309e+00 6.503473e-04
9.819620e+00 9.127182e-04
1.012993e+01 1.307643e-03
1.044024e+01 1.386367e-03
1.075055e+01 1.620441e-03
1.106086e+01 1.953722e-03
1.137117e+01 2.303931e-03
1.168148e+01 2.635514e-03
1.199179e+01 3.367339e-03
1.230210e+01 4.306568e-03
1.261241e+01 4.876104e-03
1.292272e+01 4.354764e-03
1.323303e+01 3.909268e-03
1.354334e+01 3.578982e-03
1.385365e+01 3.460271e-03
1.416396e+01 3.245634e-03
1.447427e+01 3.051950e-03
1.478458e+01 2.367926e-03
1.509489e+01 1.755578e-03
1.540521e+01 1.273112e-03
1.571552e+01 1.095232e-03
1.602583e+01 1.022968e-03
1.633614e+01 9.446459e-04
1.664645e+01 9.289241e-04
1.695676e+01 9.822665e-04
1.726707e+01 1.038899e-03
1.757738e+01 1.162026e-03
1.788769e+01 1.559403e-03
1.819800e+01 2.052002e-03
1.850831e+01 2.639322e-03
1.881862e+01 3.347436e-03
1.912893e+01 3.970551e-03
1.943924e+01 4.202834e-03
1.974955e+01 3.815771e-03
2.005986e+01 7.712248e-05
2.037017e+01 1.309284e-04
2.068048e+01 2.910012e-04
2.099079e+01 6.489182e-04
2.130110e+01 1.137938e-03
2.161141e+01 2.285919e-03
2.192172e+01 5.756362e-03
2.223203e+01 1.022453e-02
2.254234e+01 1.420272e-02
2.285265e+01 1.994268e-02
2.316296e+01 2.718121e-02
2.347327e+01 2.099598e-02
2.378358e+01 1.846827e-02
2.409389e+01 1.730094e-02
2.440420e+01 1.659926e-02
2.471451e+01 8.788678e-03
2.502482e+01 4.890352e-03
2.533514e+01 3.039874e-03
2.564545e+01 2.277765e-03
2.595576e+01 1.038910e-03
2.626607e+01 5.543555e-04
2.657638e+01 3.413672e-04
2.688669e+01 2.226036e-04
2.719700e+01 1.005728e-04
2.750731e+01 5.259543e-05
2.781762e+01 3.712439e-05
2.812793e+01 2.450706e-05
2.843824e+01 1.403557e-05
2.874855e+01 6.649801e-03
2.905886e+01 4.593788e-02
2.936917e+01 6.284626e-02
2.967948e+01 6.924891e-02
2.998979e+01 7.552392e-02
3.030010e+01 7.973873e-02
3.061041e+01 8.066888e-02
3.092072e+01 8.150452e-02
3.123103e+01 8.247459e-02
3.154134e+01 8.436653e-02
3.185165e+01 8.926844e-02
3.216196e+01 9.416303e-02
3.247227e+01 9.927682e-02
3.278258e+01 1.031294e-01
3.309289e+01 1.098894e-01
3.340320e+01 1.169852e-01
3.371351e+01 1.241425e-01
3.402382e+01 1.319329e-01
3.433413e+01 1.439155e-01
3.464444e+01 1.507166e-01
3.495475e+01 1.511428e-01
3.526507e+01 1.534718e-01
3.557538e+01 1.608293e-01
3.588569e+01 1.642484e-01
3.619600e+01 1.675163e-01
3.650631e+01 1.754098e-01
3.681662e+01 1.757078e-01
3.712693e+01 1.757085e-01
3.743724e+01 1.754020e-01
3.774755e+01 1.767698e-01
3.805786e+01 1.811546e-01
3.836817e+01 1.850089e-01
3.867848e+01 1.812044e-01
3.898879e+01 1.808128e-01
3.929910e+01 1.829849e-01
3.960941e+01 1.819354e-01
3.991972e+01 1.756740e-01
4.023003e+01 1.785405e-01
4.054034e+01 1.812510e-01
4.085065e+01 1.774935e-01
4.116096e+01 1.740173e-01
4.147127e+01 1.784911e-01
4.178158e+01 1.773587e-01
4.209189e+01 1.752262e-01
4.240220e+01 1.745725e-01
4.271251e+01 1.765861e-01
4.302282e+01 1.767961e-01
4.333313e+01 1.764585e-01
4.364344e+01 1.762120e-01
4.395375e+01 1.775721e-01
4.426406e+01 1.785186e-01
4.457437e+01 1.779928e-01
4.488468e+01 1.761988e-01
4.519499e+01 1.763090e-01
4.550531e+01 1.764107e-01
4.581562e+01 1.747355e-01
4.612593e+01 1.761714e-01
4.643624e+01 1.782152e-01
4.674655e+01 1.775864e-01
4.705686e+01 1.757536e-01
4.736717e+01 1.753889e-01
4.767748e+01 1.740054e-01
4.798779e+01 1.714868e-01
4.829810e+01 1.685158e-01
4.860841e+01 1.671993e-01
4.891872e+01 1.648526e-01
4.922903e+01 1.621805e-01
4.953934e+01 1.592833e-01
4.984965e+01 1.563372e-01
5.015996e+01 1.532916e-01
5.047027e+01 1.501330e-01
5.078058e+01 1.471851e-01
5.109089e+01 1.447415e-01
5.140120e+01 1.424283e-01
5.171151e+01 1.389560e-01
5.202182e+01 1.353008e-01
5.233213e+01 1.320687e-01
5.264244e+01 1.286936e-01
5.295275e+01 1.250456e-01
5.326306e+01 1.221553e-01
5.357337e+01 1.198417e-01
5.388368e+01 1.176426e-01
5.419399e+01 1.155130e-01
5.450430e+01 1.132612e-01
5.481461e+01 1.093235e-01
5.512492e+01 1.054130e-01
5.543524e+01 1.017021e-01
5.574555e+01 9.784447e-02
5.605586e+01 9.434894e-02
5.636617e+01 9.062771e-02
5.667648e+01 8.684516e-02
5.698679e+01 7.980131e-02
5.729710e+01 7.290899e-02
5.760741e+01 6.678654e-02
5.791772e+01 6.077220e-02
5.822803e+01 5.244306e-02
5.853834e+01 4.621498e-02
5.884865e+01 4.174821e-02
5.915896e+01 3.617389e-02
5.946927e+01 3.001078e-02
5.977958e+01 2.767944e-02
6.008989e+01 2.706993e-02
6.040020e+01 2.591926e-02
6.071051e+01 2.668313e-02
6.102082e+01 2.963675e-02
6.133113e+01 3.338681e-02
6.164144e+01 3.551391e-02
6.195175e+01 3.734617e-02
6.226206e+01 3.661968e-02
6.257237e+01 3.230238e-02
6.288268e+01 2.877639e-02
6.319299e+01 2.498177e-02
6.350330e+01 2.131597e-02
6.381361e+01 2.011665e-02
6.412392e+01 1.689511e-02
6.443423e+01 1.382055e-02
6.474454e+01 1.262871e-02
6.505485e+01 1.142044e-02
6.536517e+01 8.896548e-03
6.567548e+01 7.017234e-03
6.598579e+01 5.648754e-03
6.629610e+01 4.163897e-03
6.660641e+01 2.696564e-03
6.691672e+01 2.114252e-03
6.722703e+01 2.248839e-03
6.753734e+01 2.860767e-03
6.784765e+01 3.802944e-03
6.815796e+01 5.312160e-03
6.846827e+01 7.484973e-03
6.877858e+01 9.821769e-03
6.908889e+01 1.139884e-02
6.939920e+01 1.293579e-02
6.970951e+01 1.619125e-02
7.001982e+01 1.691500e-02
7.033013e+01 1.678799e-02
7.064044e+01 1.824394e-02
7.095075e+01 2.200365e-02
7.126106e+01 2.201456e-02
7.157137e+01 2.246998e-02
7.188168e+01 2.440650e-02
7.219199e+01 2.624088e-02
7.250230e+01 2.533155e-02
7.281261e+01 2.861633e-02
7.312292e+01 3.249781e-02
7.343323e+01 3.584259e-02
7.374354e+01 3.769576e-02
7.405385e+01 4.007691e-02
7.436416e+01 4.286826e-02
7.467447e+01 4.617614e-02
7.498478e+01 4.921243e-02
7.529510e+01 5.226660e-02
7.560541e+01 5.611300e-02
7.591572e+01 5.944157e-02
7.622603e+01 6.219363e-02
7.653634e+01 6.543408e-02
7.684665e+01 7.137188e-02
7.715696e+01 7.691604e-02
7.746727e+01 8.236995e-02
7.777758e+01 8.878497e-02
7.808789e+01 9.558889e-02
7.839820e+01 1.043654e-01
7.870851e+01 1.122944e-01
7.901882e+01 1.197977e-01
7.932913e+01 1.278565e-01
7.963944e+01 1.392119e-01
7.994975e+01 1.474088e-01
8.026006e+01 1.554698e-01
8.057037e+01 1.639603e-01
8.088068e+01 1.730179e-01
8.119099e+01 1.817088e-01
8.150130e+01 1.900444e-01
8.181161e+01 1.916175e-01
8.212192e+01 2.005147e-01
8.243223e+01 2.088400e-01
8.274254e+01 2.071113e-01
8.305285e+01 2.107744e-01
8.336316e+01 2.208410e-01
8.367347e+01 2.224229e-01
8.398378e+01 2.171207e-01
8.429409e+01 2.217954e-01
8.460440e+01 2.263396e-01
8.491471e+01 2.229499e-01
8.522503e+01 2.187019e-01
8.553534e+01 2.255953e-01
8.584565e+01 2.220462e-01
8.615596e+01 2.176853e-01
8.646627e+01 2.128424e-01
8.677658e+01 2.113017e-01
8.708689e+01 2.079536e-01
8.739720e+01 2.039355e-01
8.770751e+01 1.948300e-01
8.801782e+01 1.904487e-01
8.832813e+01 1.855131e-01
8.863844e+01 1.773076e-01
8.894875e+01 1.680574e-01
8.925906e+01 1.632710e-01
8.956937e+01 1.572836e-01
8.987968e+01 1.480273e-01
9.018999e+01 1.405633e-01
9.050030e+01 1.347756e-01
9.081061e+01 1.278050e-01
9.112092e+01 1.207726e-01
9.143123e+01 1.147004e-01
9.174154e+01 1.089210e-01
9.205185e+01 1.031906e-01
9.236216e+01 9.756101e-02
9.267247e+01 9.262395e-02
9.298278e+01 8.886887e-02
9.329309e+01 8.530476e-02
9.360340e+01 8.219453e-02
9.391371e+01 7.779449e-02
9.422402e+01 7.365939e-02
9.453433e+01 7.016207e-02
9.484464e+01 6.854557e-02
9.515495e+01 6.436928e-02
9.546527e+01 6.086324e-02
9.577558e+01 5.900953e-02
9.608589e+01 5.678009e-02
9.639620e+01 5.272730e-02
9.670651e+01 5.088008e-02
9.701682e+01 5.029384e-02
9.732713e+01 4.834456e-02
9.763744e+01 4.518807e-02
9.794775e+01 4.301123e-02
9.825806e+01 4.107555e-02
9.856837e+01 3.807373e-02
9.887868e+01 3.619276e-02
9.918899e+01 3.469580e-02
9.949930e+01 3.352425e-02
9.980961e+01 3.223459e-02
1.001199e+02 3.024524e-02
1.004302e+02 2.831848e-02
1.007405e+02 2.813405e-02
1.010509e+02 2.723070e-02
1.013612e+02 2.579752e-02
1.016715e+02 2.491531e-02
1.019818e+02 2.449900e-02
1.022921e+02 2.245425e-02
1.026024e+02 2.101732e-02
1.029127e+02 2.086087e-02
1.032230e+02 2.068088e-02
1.035333e+02 1.976362e-02
1.038436e+02 1.935856e-02
1.041540e+02 1.921785e-02
1.044643e+02 1.779435e-02
1.047746e+02 1.682122e-02
1.050849e+02 1.611685e-02
1.053952e+02 1.552401e-02
1.057055e+02 1.509688e-02
1.060158e+02 1.480248e-02
1.063261e+02 1.461299e-02
1.066364e+02 1.484115e-02
1.069467e+02 1.458646e-02
1.072571e+02 1.422819e-02
1.075674e+02 1.407539e-02
1.078777e+02 1.456602e-02
1.081880e+02 1.410376e-02
1.084983e+02 1.362136e-02
1.088086e+02 1.386989e-02
1.091189e+02 1.412233e-02
1.094292e+02 1.350665e-02
1.097395e+02 1.365834e-02
1.100498e+02 1.405167e-02
1.103602e+02 1.427394e-02
1.106705e+02 1.414673e-02
1.109808e+02 1.418616e-02
1.112911e+02 1.423374e-02
1.116014e+02 1.431263e-02
1.119117e+02 1.441381e-02
1.122220e+02 1.456806e-02
1.125323e+02 1.481537e-02
1.128426e+02 1.529216e-02
1.131530e+02 1.557747e-02
1.134633e+02 1.603107e-02
1.137736e+02 1.677982e-02
1.140839e+02 1.768492e-02
1.143942e+02 1.870805e-02
1.147045e+02 1.897486e-02
1.150148e+02 1.877593e-02
1.153251e+02 1.869564e-02
1.156354e+02 1.835636e-02
1.159457e+02 1.763281e-02
1.162561e+02 1.687346e-02
1.165664e+02 1.656161e-02
1.168767e+02 1.662967e-02
1.171870e+02 1.662706e-02
1.174973e+02 1.657716e-02
1.178076e+02 1.685712e-02
1.181179e+02 1.709636e-02
1.184282e+02 1.730625e-02
1.187385e+02 1.760163e-02
1.190488e+02 1.824148e-02
1.193592e+02 1.897978e-02
1.196695e+02 1.908494e-02
1.199798e+02 1.876914e-02
1.202901e+02 1.850089e-02
1.206004e+02 1.814608e-02
1.209107e+02 1.756732e-02
1.212210e+02 1.705136e-02
1.215313e+02 1.656537e-02
1.218416e+02 1.597825e-02
1.221520e+02 1.547948e-02
1.224623e+02 1.489762e-02
1.227726e+02 1.487541e-02
1.230829e+02 1.495769e-02
1.233932e+02 1.506872e-02
1.237035e+02 1.482043e-02
1.240138e+02 1.448359e-02
1.243241e+02 1.416436e-02
1.246344e+02 1.422537e-02
1.249447e+02 1.468324e-02
1.252551e+02 1.511279e-02
1.255654e+02 1.557988e-02
1.258757e+02 1.596261e-02
1.261860e+02 1.627812e-02
1.264963e+02 1.657022e-02
1.268066e+02 1.724316e-02
1.271169e+02 1.777486e-02
1.274272e+02 1.816180e-02
1.277375e+02 1.802725e-02
1.280478e+02 1.774572e-02
1.283582e+02 1.759660e-02
1.286685e+02 1.730047e-02
1.289788e+02 1.692956e-02
1.292891e+02 1.661659e-02
1.295994e+02 1.640893e-02
1.299097e+02 1.628038e-02
1.302200e+02 1.618670e-02
1.305303e+02 1.615383e-02
1.308406e+02 1.624969e-02
1.311510e+02 1.636956e-02
1.314613e+02 1.652035e-02
1.317716e+02 1.656600e-02
1.320819e+02 1.660831e-02
1.323922e+02 1.665125e-02
1.327025e+02 1.645927e-02
1.330128e+02 1.615886e-02
1.333231e+02 1.581513e-02
1.336334e+02 1.558622e-02
1.339437e+02 1.550847e-02
1.342541e+02 1.543300e-02
1.345644e+02 1.539789e-02
1.348747e+02 1.546713e-02
1.351850e+02 1.555554e-02
1.354953e+02 1.563998e-02
1.358056e+02 1.570268e-02
1.361159e+02 1.578637e-02
1.364262e+02 1.589129e-02
1.367365e+02 1.605817e-02
1.370468e+02 1.624679e-02
1.373572e+02 1.642609e-02
1.376675e+02 1.646366e-02
1.379778e+02 1.643002e-02
1.382881e+02 1.639357e-02
1.385984e+02 1.627627e-02
1.389087e+02 1.599286e-02
1.392190e+02 1.579503e-02
1.395293e+02 1.554419e-02
1.398396e+02 1.504472e-02
1.401499e+02 1.452904e-02
1.404603e+02 1.404188e-02
1.407706e+02 1.441742e-02
1.410809e+02 1.491406e-02
1.413912e+02 1.536630e-02
1.417015e+02 1.569547e-02
1.420118e+02 1.594662e-02
1.423221e+02 1.614763e-02
1.426324e+02 1.607380e-02
1.429427e+02 1.563475e-02
1.432531e+02 1.525673e-02
1.435634e+02 1.481919e-02
1.438737e+02 1.422099e-02
1.441840e+02 1.366148e-02
1.444943e+02 1.322992e-02
1.448046e+02 1.299070e-02
1.451149e+02 1.260145e-02
1.454252e+02 1.216879e-02
1.457355e+02 1.251802e-02
1.460458e+02 1.313749e-02
1.463562e+02 1.353601e-02
1.466665e+02 1.396111e-02
1.469768e+02 1.440738e-02
1.472871e+02 1.485385e-02
1.475974e+02 1.550257e-02
1.479077e+02 1.702683e-02
1.482180e+02 1.864378e-02
1.485283e+02 2.023732e-02
1.488386e+02 2.070743e-02
1.491489e+02 2.115973e-02
1.494593e+02 2.160381e-02
1.497696e+02 2.109435e-02
1.500799e+02 2.053396e-02
1.503902e+02 2.001394e-02
1.507005e+02 1.880526e-02
1.510108e+02 1.733769e-02
1.513211e+02 1.598657e-02
1.516314e+02 1.514329e-02
1.519417e+02 1.485999e-02
1.522521e+02 1.458402e-02
1.525624e+02 1.442260e-02
1.528727e+02 1.463750e-02
1.531830e+02 1.485367e-02
1.534933e+02 1.496222e-02
1.538036e+02 1.500767e-02
1.541139e+02 1.506014e-02
1.544242e+02 1.509181e-02
1.547345e+02 1.506985e-02
1.550448e+02 1.508202e-02
1.553552e+02 1.507397e-02
1.556655e+02 1.534956e-02
1.559758e+02 1.576912e-02
1.562861e+02 1.622966e-02
1.565964e+02 1.689162e-02
1.569067e+02 1.792753e-02
1.572170e+02 1.896678e-02
1.575273e+02 2.001601e-02
1.578376e+02 2.030551e-02
1.581479e+02 2.058659e-02
1.584583e+02 2.080986e-02
1.587686e+02 2.102212e-02
1.590789e+02 2.122058e-02
1.593892e+02 2.145388e-02
1.596995e+02 2.141943e-02
1.600098e+02 2.120817e-02
1.603201e+02 2.098780e-02
1.606304e+02 2.094105e-02
1.609407e+02 2.102705e-02
1.612511e+02 2.106049e-02
1.615614e+02 2.113373e-02
1.618717e+02 2.138505e-02
1.621820e+02 2.164620e-02
1.624923e+02 2.188062e-02
1.628026e+02 2.182533e-02
1.631129e+02 2.190213e-02
1.634232e+02 2.197042e-02
1.637335e+02 2.189157e-02
1.640438e+02 2.178564e-02
1.643542e+02 2.177080e-02
1.646645e+02 2.167819e-02
1.649748e+02 2.151844e-02
1.652851e+02 2.140792e-02
1.655954e+02 2.141048e-02
1.659057e+02 2.148024e-02
1.662160e+02 2.154958e-02
1.665263e+02 2.165331e-02
1.668366e+02 2.160731e-02
1.671469e+02 2.156136e-02
1.674573e+02 2.147737e-02
1.677676e+02 2.174053e-02
1.680779e+02 2.206191e-02
1.683882e+02 2.239424e-02
1.686985e+02 2.260773e-02
1.690088e+02 2.311292e-02
1.693191e+02 2.361192e-02
1.696294e+02 2.400051e-02
1.699397e+02 2.427267e-02
1.702501e+02 2.497567e-02
1.705604e+02 2.563424e-02
1.708707e+02 2.590041e-02
1.711810e+02 2.603736e-02
1.714913e+02 2.586034e-02
1.718016e+02 2.554532e-02
1.721119e+02 2.519969e-02
1.724222e+02 2.469968e-02
1.727325e+02 2.434942e-02
1.730428e+02 2.409368e-02
1.733532e+02 2.384808e-02
1.736635e+02 2.398874e-02
1.739738e+02 2.448975e-02
1.742841e+02 2.497527e-02
1.745944e+02 2.508412e-02
1.749047e+02 2.479462e-02
1.752150e+02 2.471486e-02
1.755253e+02 2.451821e-02
1.758356e+02 2.334451e-02
1.761459e+02 2.256763e-02
1.764563e+02 2.194240e-02
1.767666e+02 2.120264e-02
1.770769e+02 2.043317e-02
1.773872e+02 1.988121e-02
1.776975e+02 1.921761e-02
1.780078e+02 1.849345e-02
1.783181e+02 1.777548e-02
1.786284e+02 1.747225e-02
1.789387e+02 1.756428e-02
1.792490e+02 1.769523e-02
1.795594e+02 1.791098e-02
1.798697e+02 1.808279e-02
1.801800e+02 1.826662e-02
1.804903e+02 1.845858e-02
1.808006e+02 1.844017e-02
1.811109e+02 1.835557e-02
1.814212e+02 1.829065e-02
1.817315e+02 1.803170e-02
1.820418e+02 1.774913e-02
1.823522e+02 1.757315e-02
1.826625e+02 1.725905e-02
1.829728e+02 1.685426e-02
1.832831e+02 1.615874e-02
1.835934e+02 1.559050e-02
1.839037e+02 1.532164e-02
1.842140e+02 1.503722e-02
1.845243e+02 1.461099e-02
1.848346e+02 1.436214e-02
1.851449e+02 1.412663e-02
1.854553e+02 1.390096e-02
1.857656e+02 1.432656e-02
1.860759e+02 1.491483e-02
1.863862e+02 1.551997e-02
1.866965e+02 1.562408e-02
1.870068e+02 1.536613e-02
1.873171e+02 1.511840e-02
1.876274e+02 1.495348e-02
1.879377e+02 1.484894e-02
1.882480e+02 1.468989e-02
1.885584e+02 1.446048e-02
1.888687e+02 1.365955e-02
1.891790e+02 1.282278e-02
1.894893e+02 1.199928e-02
1.897996e+02 1.181211e-02
1.901099e+02 1.165645e-02
1.904202e+02 1.142912e-02
1.907305e+02 1.148350e-02
1.910408e+02 1.164956e-02
1.913512e+02 1.184878e-02
1.916615e+02 1.192783e-02
1.919718e+02 1.203592e-02
1.922821e+02 1.213819e-02
1.925924e+02 1.224520e-02
1.929027e+02 1.216648e-02
1.932130e+02 1.209310e-02
1.935233e+02 1.200640e-02
1.938336e+02 1.185302e-02
1.941439e+02 1.156534e-02
1.944543e+02 1.130621e-02
1.947646e+02 1.138643e-02
1.950749e+02 1.148639e-02
1.953852e+02 1.146436e-02
1.956955e+02 1.164294e-02
1.960058e+02 1.194197e-02
1.963161e+02 1.225813e-02
1.966264e+02 1.237575e-02
1.969367e+02 1.227955e-02
1.972470e+02 1.217969e-02
1.975574e+02 1.205201e-02
1.978677e+02 1.204610e-02
1.981780e+02 1.203370e-02
1.984883e+02 1.201910e-02
1.987986e+02 1.174799e-02
1.991089e+02 1.144703e-02
1.994192e+02 1.113304e-02
1.997295e+02 1.103759e-02
2.000398e+02 1.160330e-02
2.003502e+02 1.138799e-02
2.006605e+02 1.101028e-02
2.009708e+02 1.052821e-02
2.012811e+02 1.009702e-02
2.015914e+02 9.959338e-03
2.019017e+02 1.049207e-02
2.022120e+02 1.108653e-02
2.025223e+02 1.173686e-02
2.028326e+02 1.219811e-02
2.031429e+02 1.267427e-02
2.034533e+02 1.325994e-02
2.037636e+02 1.318558e-02
2.040739e+02 1.298005e-02
2.043842e+02 1.278534e-02
2.046945e+02 1.216687e-02
2.050048e+02 1.134654e-02
2.053151e+02 1.056199e-02
2.056254e+02 9.754326e-03
2.059357e+02 9.036943e-03
2.062460e+02 8.411294e-03
2.065564e+02 7.930727e-03
2.068667e+02 7.927585e-03
2.071770e+02 8.091304e-03
2.074873e+02 8.289504e-03
2.077976e+02 8.549033e-03
2.081079e+02 8.834957e-03
2.084182e+02 9.262930e-03
2.087285e+02 9.754448e-03
2.090388e+02 1.028554e-02
2.093491e+02 1.069586e-02
2.096595e+02 1.059462e-02
2.099698e+02 1.083144e-02
2.102801e+02 1.106417e-02
2.105904e+02 1.126200e-02
2.109007e+02 1.133324e-02
2.112110e+02 1.141566e-02
2.115213e+02 1.143761e-02
2.118316e+02 1.082098e-02
2.121419e+02 1.028120e-02
2.124523e+02 9.786223e-03
2.127626e+02 9.284527e-03
2.130729e+02 8.834366e-03
2.133832e+02 8.415442e-03
2.136935e+02 8.316706e-03
2.140038e+02 8.395643e-03
2.143141e+02 8.541161e-03
2.146244e+02 8.861654e-03
2.149347e+02 9.441330e-03
2.152450e+02 1.006674e-02
2.155554e+02 1.066296e-02
2.158657e+02 1.113987e-02
2.161760e+02 1.163859e-02
2.164863e+02 1.219488e-02
2.167966e+02 1.161449e-02
2.171069e+02 1.099845e-02
2.174172e+02 1.040324e-02
2.177275e+02 1.009303e-02
2.180378e+02 9.873644e-03
2.183481e+02 9.661011e-03
2.186585e+02 9.602956e-03
2.189688e+02 9.690270e-03
2.192791e+02 9.811907e-03
2.195894e+02 9.898630e-03
2.198997e+02 9.891040e-03
2.202100e+02 9.862334e-03
2.205203e+02 9.773977e-03
2.208306e+02 8.976241e-03
2.211409e+02 8.232451e-03
2.214513e+02 7.523161e-03
2.217616e+02 6.941075e-03
2.220719e+02 6.408354e-03
2.223822e+02 5.906862e-03
2.226925e+02 5.416145e-03
2.230028e+02 4.970066e-03
2.233131e+02 4.552276e-03
2.236234e+02 4.336055e-03
2.239337e+02 4.352775e-03
2.242440e+02 4.372727e-03
2.245544e+02 4.437504e-03
2.248647e+02 4.652264e-03
2.251750e+02 4.815897e-03
2.254853e+02 4.987311e-03
2.257956e+02 4.760968e-03
2.261059e+02 4.502952e-03
2.264162e+02 4.219106e-03
2.267265e+02 3.992057e-03
2.270368e+02 3.789216e-03
2.273471e+02 3.598069e-03
2.276575e+02 3.554737e-03
2.279678e+02 3.633544e-03
2.282781e+02 3.713367e-03
2.285884e+02 3.779619e-03
2.288987e+02 3.736446e-03
2.292090e+02 3.692081e-03
2.295193e+02 3.683892e-03
2.298296e+02 4.282012e-03
2.301399e+02 4.981310e-03
2.304503e+02 5.811353e-03
2.307606e+02 6.790328e-03
2.310709e+02 7.878618e-03
2.313812e+02 9.144428e-03
2.316915e+02 9.668887e-03
2.320018e+02 9.648890e-03
2.323121e+02 9.627562e-03
2.326224e+02 9.654585e-03
2.329327e+02 9.757819e-03
2.332430e+02 9.839480e-03
2.335534e+02 9.807085e-03
2.338637e+02 9.231729e-03
2.341740e+02 8.674913e-03
2.344843e+02 8.201411e-03
2.347946e+02 7.736309e-03
2.351049e+02 7.284685e-03
2.354152e+02 6.851866e-03
2.357255e+02 5.924504e-03
2.360358e+02 4.942277e-03
2.363461e+02 4.105123e-03
2.366565e+02 3.391293e-03
2.369668e+02 2.770740e-03
2.372771e+02 2.248753e-03
2.375874e+02 1.865349e-03
2.378977e+02 1.655975e-03
2.382080e+02 1.468288e-03
