# R (AU), sigma_d_1, sigma_d_2
1.001238e+00 3.215621e-02 2.090764e-02
1.003717e+00 3.212338e-02 2.088506e-02
1.006195e+00 3.208959e-02 2.086249e-02
1.011145e+00 3.201925e-02 2.081743e-02
1.018580e+00 3.190635e-02 2.074971e-02
1.033396e+00 3.165594e-02 2.061498e-02
1.055702e+00 3.121516e-02 2.041178e-02
1.078493e+00 3.069076e-02 2.020594e-02
1.102031e+00 3.006547e-02 1.999154e-02
1.126082e+00 2.934386e-02 1.977246e-02
1.150659e+00 2.891909e-02 1.954861e-02
1.175771e+00 2.861453e-02 1.931987e-02
1.201432e+00 2.824416e-02 1.908615e-02
1.227653e+00 2.780542e-02 1.884733e-02
1.254446e+00 2.729575e-02 1.860330e-02
1.281824e+00 2.671258e-02 1.835394e-02
1.309799e+00 2.605333e-02 1.809915e-02
1.338385e+00 2.531541e-02 1.783881e-02
1.367595e+00 2.449625e-02 1.757279e-02
1.397442e+00 2.359324e-02 1.730096e-02
1.427941e+00 2.260379e-02 1.702321e-02
1.459105e+00 2.177829e-02 1.673940e-02
1.490950e+00 2.120002e-02 1.644940e-02
1.523489e+00 2.056219e-02 1.615308e-02
1.556739e+00 1.986312e-02 1.585030e-02
1.590714e+00 1.910111e-02 1.554092e-02
1.625431e+00 1.827446e-02 1.522478e-02
1.660905e+00 1.738148e-02 1.490176e-02
1.697154e+00 1.642049e-02 1.457169e-02
1.734194e+00 1.538982e-02 1.423442e-02
1.772042e+00 1.455055e-02 1.388980e-02
1.810716e+00 1.403386e-02 1.353767e-02
1.850234e+00 1.347671e-02 1.317786e-02
1.890615e+00 1.287818e-02 1.281020e-02
1.931877e+00 1.223733e-02 1.243453e-02
1.974040e+00 1.155327e-02 1.205066e-02
2.017123e+00 1.082508e-02 1.165843e-02
2.061146e+00 1.005187e-02 1.125764e-02
2.106129e+00 9.550671e-03 1.084812e-02
2.152095e+00 9.071139e-03 1.042966e-02
2.199064e+00 8.561872e-03 1.000209e-02
2.247057e+00 8.022316e-03 9.565187e-03
2.296099e+00 7.451921e-03 9.118763e-03
2.346210e+00 6.850142e-03 8.916269e-03
2.397415e+00 6.309475e-03 8.786703e-03
2.449738e+00 5.905397e-03 8.654314e-03
2.503203e+00 5.479678e-03 8.519038e-03
2.557834e+00 5.031970e-03 8.380813e-03
2.613658e+00 4.561927e-03 8.239576e-03
2.670701e+00 4.069206e-03 8.095260e-03
2.728988e+00 3.701903e-03 7.947799e-03
2.788547e+00 3.391402e-03 7.797123e-03
2.849406e+00 3.066350e-03 7.643163e-03
2.911593e+00 2.726543e-03 7.485847e-03
2.975138e+00 2.371777e-03 7.325103e-03
3.040069e+00 2.121450e-03 7.160854e-03
3.106418e+00 1.941160e-03 6.993027e-03
3.174214e+00 1.753023e-03 6.821541e-03
3.243490e+00 1.556939e-03 6.646318e-03
3.314278e+00 1.355893e-03 6.467276e-03
3.386611e+00 1.242370e-03 6.284332e-03
3.460523e+00 1.124167e-03 6.097401e-03
3.536048e+00 1.001232e-03 5.906396e-03
3.613221e+00 8.735086e-04 5.713627e-03
3.692078e+00 8.003475e-04 5.619843e-03
3.772656e+00 7.331313e-04 5.524268e-03
3.854993e+00 6.633310e-04 5.426610e-03
3.939127e+00 5.924080e-04 5.326825e-03
4.025097e+00 5.440122e-04 5.224865e-03
4.112944e+00 4.938242e-04 5.120684e-03
4.202707e+00 4.418257e-04 5.014233e-03
4.294430e+00 4.015583e-04 4.905462e-03
4.388154e+00 3.720209e-04 4.794322e-03
4.483924e+00 3.414339e-04 4.680761e-03
4.581784e+00 3.167650e-04 4.564725e-03
4.681780e+00 3.118945e-04 4.446161e-03
4.783958e+00 3.067882e-04 4.325015e-03
4.888367e+00 3.020686e-04 4.201229e-03
4.995054e+00 2.997291e-04 4.113593e-03
5.104069e+00 2.972445e-04 4.038456e-03
5.215463e+00 2.950065e-04 3.961683e-03
5.329289e+00 2.934561e-04 3.883237e-03
5.445599e+00 2.917939e-04 3.803082e-03
5.564447e+00 2.903691e-04 3.721182e-03
5.685890e+00 2.890558e-04 3.637498e-03
5.809982e+00 2.878474e-04 3.551992e-03
5.936783e+00 2.892488e-04 3.464623e-03
6.066351e+00 2.906332e-04 3.375352e-03
6.198747e+00 2.946455e-04 3.284136e-03
6.334033e+00 3.001543e-04 3.217965e-03
6.472271e+00 3.048398e-04 3.155813e-03
6.613526e+00 3.078743e-04 3.092307e-03
6.757864e+00 3.091899e-04 3.027419e-03
6.905352e+00 3.011589e-04 2.961117e-03
7.056059e+00 2.930539e-04 2.893373e-03
7.210055e+00 2.871883e-04 2.824153e-03
7.367412e+00 2.832021e-04 2.753426e-03
7.528203e+00 3.086981e-04 2.681550e-03
7.692504e+00 3.352139e-04 2.629419e-03
7.860390e+00 3.648011e-04 2.576321e-03
8.031940e+00 3.888890e-04 2.522067e-03
8.207234e+00 3.992524e-04 2.466632e-03
8.386355e+00 4.475214e-04 2.409991e-03
8.569384e+00 5.303147e-04 2.352117e-03
8.756408e+00 6.446093e-04 2.292983e-03
8.947513e+00 7.428036e-04 2.241819e-03
9.142790e+00 7.283585e-04 2.195739e-03
9.342328e+00 6.923834e-04 2.148657e-03
9.546221e+00 6.530094e-04 2.100550e-03
9.754564e+00 8.275388e-04 2.051396e-03
9.967454e+00 1.057335e-03 2.001172e-03
1.018499e+01 1.304004e-03 1.952696e-03
1.040727e+01 1.360684e-03 1.912332e-03
1.063441e+01 1.500902e-03 1.871090e-03
1.086650e+01 1.702809e-03 1.828952e-03
1.110366e+01 1.956979e-03 1.785897e-03
1.134599e+01 2.229266e-03 1.741905e-03
1.159362e+01 2.496232e-03 1.702982e-03
1.184664e+01 2.936875e-03 1.666819e-03
1.210519e+01 3.597493e-03 1.629871e-03
1.236938e+01 4.353068e-03 1.592118e-03
1.263934e+01 4.847029e-03 1.553545e-03
1.291519e+01 4.412675e-03 1.518313e-03
1.319706e+01 4.001127e-03 1.485281e-03
1.348508e+01 3.670688e-03 1.451531e-03
1.377939e+01 3.495166e-03 1.417047e-03
1.408012e+01 3.323264e-03 1.382289e-03
1.438741e+01 3.124778e-03 1.352377e-03
1.470141e+01 2.634404e-03 1.321839e-03
1.502227e+01 1.975990e-03 1.290637e-03
1.535012e+01 1.421299e-03 1.258756e-03
1.568513e+01 1.135595e-03 1.231117e-03
1.602745e+01 1.031596e-03 1.203071e-03
1.637725e+01 9.445560e-04 1.174415e-03
1.673468e+01 9.355587e-04 1.145909e-03
1.709990e+01 9.992379e-04 1.120179e-03
1.747310e+01 1.101219e-03 1.093894e-03
1.785445e+01 1.454255e-03 1.067037e-03
1.824412e+01 2.045943e-03 1.042334e-03
1.864229e+01 2.828857e-03 1.018315e-03
1.904915e+01 3.705520e-03 9.937745e-04
1.946489e+01 4.181192e-03 9.700987e-04
1.988970e+01 2.774061e-03 9.476622e-04
2.032379e+01 1.133280e-04 9.247386e-04
2.076735e+01 3.263469e-04 9.024817e-04
2.122059e+01 9.204175e-04 8.814259e-04
2.168372e+01 2.438149e-03 8.599131e-04
2.215696e+01 8.278987e-03 8.393442e-04
2.264053e+01 1.488338e-02 8.194361e-04
2.313465e+01 2.505674e-02 7.990960e-04
2.363956e+01 2.016045e-02 7.802500e-04
2.415548e+01 1.731351e-02 7.612634e-04
2.468267e+01 1.127198e-02 7.425464e-04
2.522136e+01 4.125507e-03 7.247418e-04
2.577181e+01 2.051988e-03 7.065517e-04
2.633427e+01 5.592937e-04 6.896997e-04
2.690900e+01 2.419714e-04 6.725986e-04
2.749628e+01 6.582581e-05 6.561523e-04
2.809638e+01 2.888723e-05 6.399046e-04
2.870957e+01 4.150179e-03 6.240160e-04
2.933615e+01 5.670521e-02 6.085861e-04
2.997640e+01 7.360333e-02 5.933417e-04
3.063063e+01 8.047566e-02 5.785831e-04
3.129913e+01 8.241712e-02 5.640181e-04
3.198222e+01 8.995228e-02 5.499157e-04
3.268022e+01 1.007502e-01 5.360826e-04
3.339346e+01 1.146799e-01 5.225547e-04
3.412226e+01 1.321443e-01 5.093815e-04
3.486697e+01 1.508830e-01 4.962889e-04
3.562793e+01 1.597668e-01 4.837284e-04
3.640549e+01 1.703140e-01 4.711867e-04
3.720003e+01 1.756972e-01 4.591581e-04
3.801191e+01 1.790306e-01 4.473102e-04
3.884150e+01 1.811199e-01 5.168581e-04
3.968921e+01 1.820186e-01 1.311811e-02
4.055541e+01 1.804039e-01 2.064861e-02
4.144052e+01 1.764053e-01 2.011256e-02
4.234494e+01 1.749231e-01 1.959188e-02
4.326911e+01 1.766427e-01 1.907320e-02
4.421344e+01 1.779815e-01 1.855846e-02
4.517838e+01 1.762445e-01 1.806420e-02
4.616439e+01 1.757505e-01 1.758263e-02
4.717191e+01 1.758198e-01 1.711175e-02
4.820142e+01 1.706874e-01 1.665073e-02
4.925340e+01 1.631152e-01 1.619277e-02
5.032834e+01 1.529644e-01 1.575534e-02
5.142674e+01 1.432728e-01 1.532293e-02
5.254911e+01 1.312602e-01 1.489977e-02
5.369597e+01 1.200115e-01 1.448973e-02
5.486787e+01 1.105435e-01 1.409036e-02
5.606534e+01 9.596274e-02 1.369537e-02
5.728895e+01 7.657101e-02 1.331322e-02
5.853926e+01 4.941431e-02 1.293274e-02
5.981686e+01 2.862944e-02 1.256273e-02
6.112234e+01 2.900182e-02 1.220444e-02
6.245632e+01 3.629735e-02 1.185832e-02
6.381940e+01 2.076947e-02 1.151589e-02
6.521224e+01 1.150428e-02 1.117884e-02
6.663547e+01 3.425487e-03 1.085522e-02
6.808977e+01 4.068520e-03 1.053697e-02
6.957581e+01 1.285974e-02 1.022444e-02
7.109427e+01 2.136637e-02 9.922644e-03
7.264588e+01 2.549367e-02 9.627502e-03
7.423135e+01 3.986197e-02 9.337845e-03
7.585143e+01 5.649789e-02 9.055733e-03
7.750686e+01 7.929242e-02 8.781309e-03
7.919842e+01 1.188315e-01 8.512449e-03
8.092690e+01 1.678108e-01 8.250240e-03
8.269310e+01 2.086142e-01 7.994694e-03
8.449785e+01 2.213040e-01 7.744256e-03
8.634198e+01 2.183894e-01 7.500926e-03
8.822637e+01 1.909180e-01 7.263359e-03
9.015188e+01 1.474674e-01 7.031499e-03
9.211941e+01 1.066384e-01 6.805657e-03
9.412989e+01 7.841607e-02 6.585420e-03
9.618424e+01 5.797973e-02 6.371142e-03
9.828343e+01 4.261131e-02 6.162246e-03
1.004284e+02 3.005630e-02 5.958449e-03
1.026202e+02 2.225218e-02 5.756352e-03
1.048599e+02 1.746489e-02 5.562790e-03
1.071484e+02 1.466240e-02 5.374213e-03
1.094869e+02 1.399299e-02 5.192016e-03
1.118764e+02 1.429985e-02 5.019891e-03
1.143181e+02 1.743354e-02 4.845904e-03
1.168130e+02 1.663734e-02 4.676401e-03
1.193624e+02 1.819606e-02 4.511669e-03
1.219675e+02 1.638086e-02 4.351184e-03
1.246294e+02 1.420521e-02 4.194830e-03
1.273494e+02 1.755763e-02 4.043027e-03
1.301287e+02 1.633619e-02 3.895778e-03
1.329687e+02 1.652054e-02 3.751916e-03
1.358707e+02 1.563354e-02 3.612824e-03
1.388361e+02 1.632899e-02 3.477110e-03
1.418661e+02 1.544223e-02 3.345311e-03
1.449623e+02 1.318035e-02 3.217735e-03
1.481261e+02 1.604844e-02 3.093823e-03
1.513589e+02 1.770204e-02 2.973074e-03
1.546622e+02 1.506672e-02 2.856454e-03
1.580377e+02 2.006450e-02 2.742854e-03
1.614868e+02 2.102947e-02 2.632784e-03
1.650112e+02 2.170644e-02 2.526527e-03
1.686125e+02 2.211618e-02 2.423204e-03
1.722924e+02 2.553166e-02 2.322912e-03
1.760526e+02 2.437569e-02 2.225876e-03
1.798949e+02 1.778338e-02 2.132133e-03
1.838211e+02 1.612747e-02 2.041306e-03
1.878329e+02 1.512836e-02 1.953621e-03
1.919323e+02 1.184968e-02 1.868501e-03
1.961211e+02 1.156258e-02 1.786039e-03
2.004014e+02 1.122469e-02 1.706343e-03
2.047751e+02 1.290126e-02 1.629593e-03
2.092442e+02 9.621449e-03 1.555595e-03
2.138109e+02 8.659398e-03 1.483986e-03
2.184773e+02 1.000155e-02 1.414603e-03
2.232455e+02 5.550044e-03 1.348609e-03
2.281177e+02 3.582506e-03 1.283886e-03
2.330963e+02 9.634045e-03 1.222118e-03
2.381836e+02 1.973787e-03 1.162693e-03
2.433818e+02 4.369253e-03 1.105102e-03
2.486936e+02 8.864883e-04 1.050068e-03
2.541212e+02 5.191061e-03 9.968554e-04
2.596673e+02 2.550591e-03 9.458116e-04
2.653345e+02 2.896134e-03 8.968236e-04
2.711253e+02 4.257217e-04 8.497457e-04
2.770425e+02 1.595929e-05 8.045897e-04
2.830889e+02 2.863497e-03 7.612827e-04
2.892672e+02 2.238171e-05 7.198284e-04
2.955804e+02 2.420482e-03 6.800611e-04
3.020313e+02 2.879038e-05 6.420450e-04
3.086230e+02 6.351046e-05 6.056931e-04
3.153586e+02 9.994133e-07 5.709055e-04
3.222412e+02 9.994030e-07 5.376672e-04
3.292740e+02 9.993926e-07 5.063164e-04
3.364603e+02 9.993820e-07 4.761348e-04
3.438034e+02 9.993712e-07 4.473158e-04
3.513068e+02 9.993603e-07 4.198453e-04
3.589740e+02 9.993492e-07 3.937235e-04
3.668085e+02 9.993379e-07 3.688684e-04
3.748139e+02 9.993265e-07 3.452564e-04
3.829941e+02 9.993149e-07 3.228505e-04
3.913528e+02 9.993032e-07 3.015907e-04
3.998940e+02 9.992912e-07 2.814771e-04
4.086215e+02 9.992791e-07 2.624096e-04
4.175395e+02 9.992668e-07 2.443711e-04
4.266522e+02 9.992543e-07 2.273731e-04
4.359637e+02 9.992416e-07 2.112639e-04
4.454785e+02 9.992287e-07 1.961271e-04
4.552009e+02 9.992156e-07 1.818508e-04
4.651355e+02 9.992023e-07 1.684384e-04
4.752869e+02 9.991889e-07 1.557821e-04
4.856599e+02 9.991752e-07 1.439324e-04
4.962593e+02 9.991613e-07 1.328317e-04
5.070900e+02 9.991472e-07 1.223800e-04
5.181570e+02 9.991329e-07 1.126391e-04
5.294656e+02 9.991184e-07 1.035514e-04
5.410210e+02 9.991036e-07 9.504785e-05
5.528286e+02 9.990886e-07 8.717932e-05
5.648939e+02 9.990734e-07 7.980911e-05
5.772225e+02 9.990580e-07 7.295096e-05
5.898202e+02 9.990424e-07 6.658261e-05
6.026928e+02 9.990265e-07 6.067763e-05
6.158464e+02 9.990103e-07 5.520981e-05
6.292870e+02 9.989940e-07 5.016074e-05
6.430210e+02 9.989773e-07 4.549976e-05
